energy 	 mean 	 psig1 	 nsig1 	 psig2 	 nsig2 
0 	 2.675 	 2.719027963142342 	 2.6309720368576577 	 2.8070838894270262 	 2.5429161105729734 
1 	 2.7697206385404787 	 2.862803261176325 	 2.6766380159046324 	 3.048968506448018 	 2.4904727706329393 
2 	 2.8886801640184525 	 3.003739430324404 	 2.773620897712501 	 3.2338579629363076 	 2.5435023651005975 
3 	 2.9975346163356136 	 3.111628731753958 	 2.8834405009172692 	 3.3398169625906466 	 2.6552522700805805 
4 	 3.095934413598263 	 3.195864904368314 	 2.996003922828212 	 3.395725885908416 	 2.79614294128811 
5 	 3.1771128153124595 	 3.26553412066221 	 3.088691509962709 	 3.4423767313617115 	 2.9118488992632074 
6 	 3.243654492827651 	 3.3239283527435877 	 3.1633806329117142 	 3.484476072575462 	 3.00283291307984 
7 	 3.2996722436611328 	 3.37436213152409 	 3.2249823557981756 	 3.523741907250004 	 3.0756025800722617 
8 	 3.3476109069309876 	 3.418056820093849 	 3.2771649937681264 	 3.5589486464195716 	 3.1362731674424036 
9 	 3.389183608428287 	 3.455979938087776 	 3.322387278768798 	 3.589572597406754 	 3.18879461944982 
10 	 3.4252814792452835 	 3.4892363632224037 	 3.3613265952681632 	 3.6171461311766437 	 3.233416827313923 
11 	 3.4579656295224313 	 3.5199478720158837 	 3.395983387028979 	 3.643912357002789 	 3.2720189020420736 
12 	 3.4874134988642784 	 3.547159720369485 	 3.4276672773590717 	 3.666652163379898 	 3.3081748343486588 
13 	 3.513775749415435 	 3.5717847975181773 	 3.4557667013126925 	 3.6878028937236627 	 3.339748605107207 
14 	 3.537956526443608 	 3.594519436147104 	 3.4813936167401125 	 3.707645255554095 	 3.368267797333121 
15 	 3.5601510088291333 	 3.615354219056943 	 3.5049477986013233 	 3.725760639512563 	 3.3945413781457034 
16 	 3.580613043843743 	 3.6346134286889535 	 3.5266126589985323 	 3.7426141983793744 	 3.4186118893081114 
17 	 3.599483452875299 	 3.652477859769427 	 3.5464890459811707 	 3.7584666735576837 	 3.440500232192914 
18 	 3.617327883192437 	 3.6692685231058837 	 3.56538724327899 	 3.773149802932777 	 3.461505963452097 
19 	 3.6339036025514333 	 3.6849908380395635 	 3.582816367063303 	 3.787165309015824 	 3.4806418960870427 
20 	 3.6493890858861584 	 3.6997039360085995 	 3.5990742357637173 	 3.8003336362534816 	 3.498444535518835 
21 	 3.6639924156464616 	 3.7135057956628454 	 3.6144790356300778 	 3.812532555695613 	 3.51545227559731 
22 	 3.6781512207960003 	 3.726975923390889 	 3.6293265182011116 	 3.824625328580666 	 3.5316771130113347 
23 	 3.691370750458035 	 3.739693133380065 	 3.6430483675360046 	 3.8363378992241257 	 3.546403601691944 
24 	 3.703822769826752 	 3.7516217601276667 	 3.656023779525837 	 3.847219740729496 	 3.560425798924008 
25 	 3.715862071031443 	 3.763117483997383 	 3.668606658065503 	 3.8576283099292623 	 3.5740958321336236 
26 	 3.727366619835009 	 3.774023266118073 	 3.680709973551945 	 3.8673365586842006 	 3.5873966809858175 
27 	 3.7381539388272524 	 3.7842726371418776 	 3.6920352405126273 	 3.8765100337711274 	 3.5997978438833775 
28 	 3.7484764854379415 	 3.79399968829052 	 3.702953282585363 	 3.885046093995677 	 3.611906876880206 
29 	 3.7585733237072465 	 3.8035087883406304 	 3.7136378590738626 	 3.8933797176073983 	 3.6237669298070947 
30 	 3.7682353153500023 	 3.8128269624678515 	 3.723643668232153 	 3.902010256703549 	 3.634460373996456 
31 	 3.7773983783783773 	 3.821669217997926 	 3.7331275387588287 	 3.9102108972370226 	 3.644585859519732 
32 	 3.7862956708812083 	 3.8301298185933543 	 3.7424615231690623 	 3.9177981140176468 	 3.65479322774477 
33 	 3.794932591965108 	 3.8383890736267934 	 3.751476110303422 	 3.925302036950164 	 3.6645631469800515 
34 	 3.803292282232586 	 3.8465937093824154 	 3.7599908550827568 	 3.9331965636820736 	 3.6733880007830986 
35 	 3.811260103795591 	 3.854263839144928 	 3.768256368446254 	 3.940271309843603 	 3.6822488977475794 
36 	 3.8188560836912444 	 3.8614076276557068 	 3.776304539726782 	 3.9465107155846315 	 3.6912014517978573 
37 	 3.826378865286368 	 3.868605443902148 	 3.784152286670588 	 3.953058601133708 	 3.699699129439028 
38 	 3.8337717551069384 	 3.8757736763818613 	 3.7917698338320154 	 3.9597775189317077 	 3.707765991282169 
39 	 3.8409065821749797 	 3.8825365827823144 	 3.799276581567645 	 3.9657965839969838 	 3.7160165803529757 
40 	 3.8478328084398092 	 3.889071140307459 	 3.8065944765721595 	 3.9715478040427588 	 3.7241178128368597 
41 	 3.854396029669975 	 3.8955591413826585 	 3.8132329179572912 	 3.977885364808026 	 3.7309066945319236 
42 	 3.86086193695041 	 3.9018238452272467 	 3.8199000286735734 	 3.9837476617809204 	 3.7379762121198996 
43 	 3.8673618882166183 	 3.908005152205115 	 3.8267186242281217 	 3.989291680182108 	 3.7454320962511285 
44 	 3.873417475320815 	 3.9136903431673793 	 3.833144607474251 	 3.994236078860508 	 3.7525988717811223 
45 	 3.8791554903604353 	 3.9192007274673504 	 3.83911025325352 	 3.99929120168118 	 3.7590197790396904 
46 	 3.884965865992415 	 3.924862616311896 	 3.845069115672934 	 4.004656116950858 	 3.7652756150339726 
47 	 3.8907360519021363 	 3.930395885817448 	 3.8510762179868245 	 4.009715553648072 	 3.7717565501562005 
48 	 3.896367199655313 	 3.9358811863807976 	 3.856853212929828 	 4.014909159831767 	 3.777825239478859 
49 	 3.9017425398694856 	 3.9411391603970483 	 3.862345919341923 	 4.0199324014521745 	 3.783552678286797 
50 	 3.9068649538906457 	 3.9460982732601466 	 3.867631634521145 	 4.024564911999149 	 3.7891649957821425 
51 	 3.9121580912714085 	 3.951208966320911 	 3.873107216221906 	 4.029310716419917 	 3.7950054661229 
52 	 3.91743347170898 	 3.9562335904477326 	 3.878633352970227 	 4.033833827925238 	 3.801033115492722 
53 	 3.922366728494689 	 3.960993720538837 	 3.883739736450541 	 4.038247704627133 	 3.806485752362245 
54 	 3.9270533138185244 	 3.965566122596747 	 3.888540505040302 	 4.042591740153192 	 3.811514887483857 
55 	 3.9317373381152816 	 3.9699933642451146 	 3.8934813119854486 	 4.046505416504782 	 3.816969259725782 
56 	 3.936458941999138 	 3.9745040344296787 	 3.898413849568597 	 4.050594219290761 	 3.822323664707515 
57 	 3.9409546810925047 	 3.978941745907544 	 3.9029676162774654 	 4.054915875537623 	 3.8269934866473867 
58 	 3.945653726820116 	 3.98353179883218 	 3.9077756548080522 	 4.059287942856307 	 3.8320195107839248 
59 	 3.950039990414283 	 3.9877371606553385 	 3.9123428201732273 	 4.063131501137449 	 3.8369484796911166 
60 	 3.954176417803303 	 3.9917744127143906 	 3.9165784228922154 	 4.066970402536565 	 3.8413824330700406 
61 	 3.958404514948139 	 3.9958504995476254 	 3.9209585303486527 	 4.070742468746597 	 3.8460665611496805 
62 	 3.9625871323309183 	 3.999784131624843 	 3.9253901330369936 	 4.074178130212693 	 3.8509961344491437 
63 	 3.9667355431238227 	 4.003920113321465 	 3.929550972926181 	 4.078289253716749 	 3.855181832530897 
64 	 3.970793754590897 	 4.007909489228782 	 3.9336780199530126 	 4.08214095850455 	 3.8594465506772435 
65 	 3.9745533040437553 	 4.01153781298003 	 3.9375687951074805 	 4.085506830852579 	 3.8635997772349313 
66 	 3.9783223636800376 	 4.015237824319258 	 3.9414069030408174 	 4.089068745597698 	 3.8675759817623767 
67 	 3.9820629332853152 	 4.018774534929728 	 3.9453513316409023 	 4.0921977382185535 	 3.8719281283520766 
68 	 3.985833864125275 	 4.0223977012326415 	 3.949270027017908 	 4.095525375447375 	 3.876142352803175 
69 	 3.989623508080978 	 4.026011734041976 	 3.95323528211998 	 4.098788185963972 	 3.880458830197984 
70 	 3.9932015826788567 	 4.029366713099655 	 3.9570364522580577 	 4.101696973941253 	 3.88470619141646 
71 	 3.9967818421288954 	 4.032924892009037 	 3.960638792248754 	 4.105210991769319 	 3.8883526924884717 
72 	 4.0001985904162725 	 4.036352138232544 	 3.9640450426000013 	 4.108659233865086 	 3.8917379469674596 
73 	 4.003653589345652 	 4.039728577589492 	 3.9675786011018124 	 4.1118785540771725 	 3.8954286246141323 
74 	 4.007212902644772 	 4.043174908024591 	 3.971250897264953 	 4.11509891878423 	 3.899326886505315 
75 	 4.010524127349901 	 4.046354146674908 	 3.9746941080248934 	 4.118014185324922 	 3.903034069374879 
76 	 4.013739998441705 	 4.049509906202584 	 3.977970090680826 	 4.121049721724341 	 3.9064302751590687 
77 	 4.01683737449423 	 4.0524833692584075 	 3.9811913797300527 	 4.123775358786763 	 3.9098993902016974 
78 	 4.0199892875951555 	 4.055486459288241 	 3.984492115902069 	 4.126480802674414 	 3.913497772515897 
79 	 4.02320182311916 	 4.058611444904446 	 3.9877922013338742 	 4.129430688475017 	 3.9169729577633032 
80 	 4.026467228727184 	 4.061736028480556 	 3.9911984289738114 	 4.132273627987302 	 3.9206608294670664 
81 	 4.029611056693025 	 4.064852009006384 	 3.9943701043796667 	 4.135333913633102 	 3.9238881997529487 
82 	 4.032492852904687 	 4.0676794459029635 	 3.99730625990641 	 4.138052631899517 	 3.926933073909857 
83 	 4.03553779609638 	 4.070613060204726 	 4.000462531988033 	 4.14076358842142 	 3.930312003771339 
84 	 4.038477949214199 	 4.073496766650256 	 4.0034591317781425 	 4.14353440152237 	 3.9334214969060284 
85 	 4.0413346658846905 	 4.076235331019476 	 4.006434000749905 	 4.146036661289049 	 3.9366326704803325 
86 	 4.044210354435688 	 4.079011725897197 	 4.00940898297418 	 4.148614468820215 	 3.939806240051162 
87 	 4.047028227976796 	 4.081767196382034 	 4.012289259571557 	 4.151245133192511 	 3.942811322761081 
88 	 4.049898159862335 	 4.0845602684060225 	 4.015236051318647 	 4.153884485493398 	 3.945911834231271 
89 	 4.052771634832306 	 4.0874517462708155 	 4.018091523393796 	 4.156811969147834 	 3.9487313005167772 
90 	 4.055383147758048 	 4.090012243807546 	 4.0207540517085505 	 4.159270435906543 	 3.9514958596095537 
91 	 4.05795993168602 	 4.092500097088795 	 4.023419766283245 	 4.161580427894346 	 3.954339435477695 
92 	 4.060795960369501 	 4.09529762160927 	 4.026294299129732 	 4.164300944088809 	 3.957290976650193 
93 	 4.063532204182735 	 4.097933261023464 	 4.029131147342007 	 4.1667353747049205 	 3.96032903366055 
94 	 4.066072664983772 	 4.100348199202013 	 4.031797130765531 	 4.168899267638497 	 3.9632460623290475 
95 	 4.068624698556672 	 4.102899716168689 	 4.034349680944655 	 4.171449751392721 	 3.965799645720622 
96 	 4.071188900478365 	 4.105394881353084 	 4.036982919603646 	 4.173806843102523 	 3.968570957854207 
97 	 4.073699046591114 	 4.107784670194768 	 4.039613422987459 	 4.175955917402075 	 3.9714421757801524 
98 	 4.076048551513438 	 4.110110146304636 	 4.04198695672224 	 4.178233335887031 	 3.9738637671398447 
99 	 4.078372063652437 	 4.112313510562456 	 4.044430616742418 	 4.180196404382493 	 3.976547722922381 
100 	 4.080831823080675 	 4.11477394467124 	 4.046889701490109 	 4.182658187852372 	 3.979005458308978 
101 	 4.083417954998163 	 4.117298548495479 	 4.049537361500847 	 4.185059735490112 	 3.981776174506214 
102 	 4.085855634182263 	 4.119597468712314 	 4.052113799652211 	 4.187081137772417 	 3.9846301305921092 
103 	 4.088108373205741 	 4.121873881451815 	 4.054342864959667 	 4.189404897943965 	 3.986811848467517 
104 	 4.0904450440114015 	 4.124169758833783 	 4.05672032918902 	 4.191619188478544 	 3.9892708995442594 
105 	 4.092864710920514 	 4.126581422953327 	 4.059147998887701 	 4.194014847018953 	 3.9917145748220753 
106 	 4.095192509962075 	 4.128795429137618 	 4.061589590786532 	 4.196001267488704 	 3.994383752435447 
107 	 4.097311874533234 	 4.1308303752286 	 4.063793373837868 	 4.197867376619331 	 3.996756372447136 
108 	 4.099447991391679 	 4.132975643626792 	 4.065920339156565 	 4.2000309480970195 	 3.9988650346863372 
109 	 4.101817529296581 	 4.135330486788948 	 4.068304571804214 	 4.202356401773683 	 4.00127865681948 
110 	 4.104112117263453 	 4.137577979819263 	 4.0706462547076425 	 4.204509704930885 	 4.003714529596021 
111 	 4.1062402019716275 	 4.139644823323032 	 4.072835580620223 	 4.206454066025841 	 4.006026337917414 
112 	 4.10836943767488 	 4.141738277269189 	 4.075000598080571 	 4.208475956457806 	 4.008262918891954 
113 	 4.110295508132398 	 4.143554453738431 	 4.077036562526366 	 4.210072344950497 	 4.0105186713142995 
114 	 4.11235378526074 	 4.145520367730338 	 4.079187202791141 	 4.211853532669534 	 4.0128540378519455 
115 	 4.114625060662524 	 4.14780386438672 	 4.081446256938328 	 4.214161471835112 	 4.015088649489936 
116 	 4.116668165953006 	 4.149753087932865 	 4.0835832439731465 	 4.215922931892583 	 4.017413400013429 
117 	 4.118739069541953 	 4.1518138267499864 	 4.08566431233392 	 4.217963341166052 	 4.0195147979178545 
118 	 4.1208067759484335 	 4.153867584830318 	 4.087745967066549 	 4.219989202594087 	 4.02162434930278 
119 	 4.122784992265908 	 4.155817868885457 	 4.089752115646359 	 4.221883622124555 	 4.023686362407261 
