Wavelength  Distance
262.8879199794819 0.006768999582592504
263.88054578220203 0.006451397582090218
264.87499192454294 0.006144533768009616
265.86546775030257 0.005837784005677777
266.8575891694871 0.0055518965367241544
267.8513098582348 0.005296156752058253
268.8407064172058 0.005055090808641031
269.83151983151987 0.004807703900793346
270.823700376511 0.0045738374190612595
271.817197410002 0.00434216783824287
272.81195936654393 0.0041100688161355235
273.8018387017786 0.00390863512464492
274.7927883648712 0.003736474143295448
275.7847533632287 0.003574429873492486
276.77767776777677 0.003409492171783825
277.7715047085658 0.003257148943917529
278.75985858036444 0.0031080405769746324
279.75527099870357 0.0029696999168763324
280.74500136948785 0.0028506531302874725
281.73530624398734 0.0027415960153607754
282.73262228760575 0.0026364160062794504
283.7239343052223 0.0025259276603407303
284.71563158260227 0.0024184294490781437
285.70764906738515 0.00232176658126783
286.69992074961544 0.0022441328892855213
287.69237966038264 0.0021842720550965243
288.6849578707724 0.0021293794928208113
289.677586491133 0.0020739169938915713
290.6701956706683 0.0020166052716895965
291.65579873378704 0.00196092137766633
292.6481084939329 0.0019127510887716607
293.6401833460657 0.0018791696215998126
294.63194960116897 0.0018484619973136954
295.63043791760805 0.0018149412836676447
296.6214097957412 0.001772065972012414
297.61184640325195 0.0017233903218870398
298.60167022722857 0.001674983596745569
299.59810010960905 0.001635174741693183
300.58651026392965 0.0016163323052840399
301.5814637734461 0.0016229958062777715
302.5681393289383 0.0016416692845854914
303.56129223327326 0.0016569019395627192
304.553445415604 0.0016664028165215795
305.54451510333865 0.0016686986690796313
306.5420560747663 0.0016699220113323154
307.53075307530753 0.0016802675424247727
308.5258484460832 0.0017070745184075752
309.5118268746854 0.0017386759180058105
310.50412743291344 0.001757291428325122
311.50281112292964 0.0017506601634866407
312.4920606691903 0.0017310015818931595
313.4876134162504 0.0017117113028760672
314.4734487254877 0.0017071528037031008
315.4655039753783 0.0017412013336506856
316.45569620253167 0.0018282107020980603
317.45212409022866 0.001973101165180218
318.4466019417476 0.0021517817535865597
319.43903389170237 0.002337633448058451
320.42932319074663 0.002503677008197017
321.41737221699594 0.0026348874628486594
322.4115334207077 0.0027549675137976087
323.40336023979177 0.0028843968266387076
324.392752591186 0.0030500496307271883
325.38821724293007 0.0032538438564118474
326.3811494984875 0.0034502264175055516
327.3714468221016 0.003593271206289184
328.3677719045331 0.00361410992740089
329.35254110212605 0.003643345231343207
330.3521070018532 0.003687921569316222
331.3399062550509 0.00380172059113119
332.33363054227124 0.004072114672986885
333.3243001544673 0.004665827834115978
334.320893696828 0.005787441969718057
335.3051822370035 0.007805231174762789
336.30447859134904 0.011441474554178545
337.2912496229468 0.01796077456641153
338.2838283828383 0.03668786181575122
339.27290781706847 0.05429973573598759
340.2677879827377 0.0786511975007311
341.25905168826125 0.10853139864575335
342.2561077411097 0.13713108459626838
343.2494279176201 0.16310139149558395
344.23889619657996 0.18468193405857763
345.22439585730723 0.20273863819774524
346.22529978044247 0.21945341485478345
347.212420606916 0.23518953127885012
348.20518627561995 0.2492551456958048
349.1937315466727 0.26171189422279156
350.1879057055005 0.27204491692000093
351.1777301927195 0.2822519491550563
352.1731661226593 0.2889201610323923
353.1641208223269 0.2960252701763017
354.16066801036567 0.3026007883831508
355.15260012127163 0.30929212353277324
356.13979210701564 0.3158102924554798
357.1324874422926 0.32399252063480194
358.12030513014616 0.332529439838822
359.11360252255406 0.3398859763270259
360.112425342546 0.34970543036206975
361.10621807292586 0.35947204789712334
362.0948511878477 0.3740674128335981
363.0889125044279 0.38777516033941145
364.0776699029126 0.40146125027758606
365.07182713997383 0.4157597507148725
366.06053391268114 0.4323208752956853
367.0546105640108 0.44911809395952984
368.0430879712747 0.46768921614930203
369.036903690369 0.48738517935534853
370.0249691645859 0.51085502628432
371.0183397683398 0.5345899205571193
372.01705834316306 0.5623982808905209
373.0098559514784 0.5948968896305211
373.9965945025541 0.6298338299658578
374.98856742172495 0.6693890604602755
375.9858164700129 0.7152562665924747
376.9768297168077 0.7701099996204619
377.9614663675752 0.8324082646811789
378.962935576301 0.9068393029116534
379.94625150588456 1.000441226580704
380.94648166501486 1.11236181188903
381.9282720074523 1.2440764206379318
382.9270570654712 1.406782236644417
383.9190960734128 1.6068523595632502
384.9162885307464 1.8535485277902284
385.9065666865372 2.1884902520051965
386.88978359335687 2.610525607794127
387.8902554399243 3.1345103693756653
388.8836194631509 3.8492867476593102
389.86972645725695 4.859081368349288
390.86084718294194 6.161171132379351
391.85701997515054 7.900046591474122
392.8457361865219 10.061314714063618
393.83945438826805 13.074496325685995
394.82553847141526 17.49702920867505
395.8165728077233 23.64890371600033
396.81259476723557 32.24777771893832
397.8007761966365 44.202464504260746
398.79389164478164 60.31244060311591
399.7919781577066 81.87317239309375
400.7820136852395 110.53763150497572
401.7769647873522 148.15706792926915
402.76367922983724 193.4228719942934
403.7552521008403 248.65735777481873
404.7517193721412 310.44857817029947
405.73973280554185 379.4775161733451
406.732581594524 456.40791513745694
407.7303013226373 533.6372549063371
408.71934604904635 616.2543761780901
409.71320075946835 696.0095641650552
410.6981869177602 798.8847896148503
411.70170036149415 879.4599046615828
412.68243583291394 972.4648120868934
413.6817677328221 1031.1632873966696
414.6719708718225 1130.8573624910914
415.6669257544524 1190.2846780463801
416.65255242031094 1221.9293590078905
417.6428644188652 1313.5464577765601
418.6378952384194 1353.8652025527167
419.6376786871823 1396.4418677528606
420.62786403118804 1418.7544425662509
421.62273334932985 1437.9992825025954
422.60779934719125 1473.3664201673148
423.59747907841717 1477.5520957740453
424.59180503296625 1480.7438325009603
425.5908100065742 1493.3118450593863
426.57973226052576 1510.0001141786586
427.5732610282615 1495.6223069318246
428.5564962893279 1472.9002672372724
429.5592652091919 1522.494301648182
430.53659561062693 1565.694451931713
431.53352278707507 1538.6803429638016
432.53507753982484 1582.0978232960385
433.52601156069363 1534.5077791885935
434.5061466723188 1573.936641172594
435.50614311510816 1573.1470021099715
436.49526242946877 1554.9656608233397
437.48888493686644 1628.4384848842178
438.48704146019753 1639.0752296171213
439.4740603115621 1663.0240752207396
440.46553267681287 1608.5689125574672
441.4614887660613 1608.2177740498387
442.44604316546764 1642.683761189175
443.43499891845124 1708.386969590507
444.4283856048562 1669.7573514124026
445.42623307018175 1632.3548614523556
446.4123688890502 1691.3884731674077
447.40288083806195 1676.797292162061
448.3977981116255 1642.274920256444
449.3971501644136 1682.5489798841509
450.3844745514464 1681.5422893634886
451.3761467889908 1678.184202866989
452.3721956601692 1724.4834634271422
453.3559396999742 1733.592039154647
454.36075505153116 1779.0435703790579
455.35317636605953 1804.0399388978171
456.3330117978779 1727.9784383611045
457.33407696597885 1748.8664530493922
458.3224652531952 1754.4991662014043
459.3151349938384 1699.182925001281
460.3121140675873 1776.8856643260754
461.2961296129613 1776.5611820645377
462.2843612583155 1733.592039154647
463.2768361581921 1760.2866911139229
464.2735817008266 1831.4180112873087
465.2570261376102 1800.9742831345773
466.262319939348 1859.8723220067945
467.25421668439446 1782.9686873029764
468.23251741596556 1942.8381788450731
469.23282340823255 1809.5163212435607
470.2194357366771 1898.180203866192
471.21020572348004 1903.3937943285869
472.2051597051597 1972.9288840381992
473.2043242411419 1995.3035504967622
474.1894444658622 1909.5871119658666
475.17867490824807 1980.151995811178
476.1720413456699 2053.5780885181175
477.1695697715017 2085.0701154021667
478.15269786969367 2033.2900342944897
479.15855083755355 2003.3050344223475
480.14990045672795 2091.22425647909
481.14536066343294 1988.2978442874494
482.1260583254939 2102.2609483063743
483.1297380101339 2059.7431316248303
484.11855000590384 1990.9583886601724
485.1114178662986 2056.745180537998
486.0891558646854 2038.3366929519666
487.0901314747347 2120.738786401758
488.07587000515855 2010.2413297060573
489.065606361829 2037.6415659799738
490.05936491493685 2043.876292873286
491.05717023315236 1975.8725035705843
492.0590470856503 2061.606590429075
493.0452559425983 2032.5929000583187
494.03542595493434 2073.583569828589
495.02958103593994 2159.7984510214324
496.0277452917692 2009.3736624407434
497.00985938257634 2133.9847560653
497.9958702781489 2100.9746064382816
498.98580121703856 2160.819382243582
499.9796756229421 2120.004099544814
500.9775171065493 2101.57392731384
501.9793494674122 2149.1609782989517
502.9646289102433 2115.6892253225756
503.95378375056333 2060.0730484017163
504.9468368980664 2066.66550658071
505.94381144337956 2079.094491146836
506.92383778437187 2112.543972257238
507.92864222001975 2160.1919487664245
508.9163804874012 2163.34510009172
509.9079678301965 2170.28722751934
510.90342679127724 2110.5286345447903
511.8814765491698 2086.4689911154337
512.8846634976233 2092.9257611779644
513.870320855615 2134.386913378165
514.8597739640018 2115.706921739489
515.8530447911425 2136.009084682192
516.8501554752501 2171.970665674715
517.8511283260357 2146.4982288894576
518.8340996330198 2147.968612105436
519.8208097371313 2035.444364989853
520.8112800101621 2147.968612105436
521.8055319871033 2129.284177651117
522.8035873677052 1995.2196090659047
523.8054680180564 2018.6639941335657
524.7888045055039 2027.7371504199948
525.7758399589638 2033.83500323979
526.7665952890792 1981.2635635813183
527.7610915644041 1930.1525837320985
528.7593500128966 1911.1742342960351
529.738576166071 1972.8468145955453
530.7443365695793 1995.2196090659047
531.7309355006051 2012.1603076433614
532.7212092338343 2031.1783168146153
533.7151783389742 2024.8099672562064
534.7128635395383 2079.094491146836
535.6909542267323 2074.643710213368
536.6960467754603 2097.4380227613196
537.6814128344116 2153.9375965199124
538.6704037838311 2025.0963603481396
539.6630396630397 1973.4984288502276
540.6593406593407 2079.094491146836
541.6593271093888 2047.7537264043979
542.6390788370759 2103.9629667858135
543.6464088397789 2047.7537264043979
544.6333687566419 1958.9379254783505
545.6239187330879 1973.4984288502276
546.6180783930317 1955.1423851415987
547.615867503673 1851.2693643723583
548.5928370723874 1800.371799116389
549.5978552278821 1833.059336419173
550.5819158460162 1856.3507155023856
551.5695067264573 1754.6046443490125
552.5606469002696 1838.8962844871785
553.5553555355535 1875.7054829956103
554.5536519386835 1819.5435659602776
555.5304638453547 1781.1231069896703
556.5359033527894 1782.1354010920043
557.5197171607289 1817.9698981772385
558.5070153929981 1810.4402046542257
559.4978165938865 1791.0782361284396
560.4921394395078 1792.0976486757484
561.4900027389757 1853.1184320351372
562.4914254355879 1746.6323261920124
563.4706124879747 1774.0276459901672
564.4791188618633 1790.9852354860056
565.4652445752115 1879.901567382807
566.4548217739707 1782.1354010920043
567.4478686104446 1824.5572999535273
568.4444033644514 1779.7696033163575
569.4180824961808 1798.6264464657438
570.4215554421927 1824.5572999535273
571.4020254575862 1869.0480653275076
572.4125093075205 1897.5536446263102
573.3998414992309 1851.3777652017513
574.3905855982068 1910.2360705632882
575.3847593207653 1960.4308949724395
576.3823805060919 2020.6475190960468
577.3563650018776 1938.8223068243935
578.3608407391733 1917.7721184657682
579.3415288964251 1886.6366676746893
580.3529300745494 1897.0887393343237
581.3403913413366 1966.9862963507167
582.3312186345989 1900.8096113572758
583.3254291947263 1877.1763916365621
584.3230403800475 1904.3825976217981
585.2962169878658 1901.9625671509261
586.3005863005862 1881.864304863632
587.2803666921315 1806.1525637682464
588.2915630380714 1820.1676838061217
589.2780146600873 1775.2519777347704
590.2677800172761 1751.1547951417447
591.2608758352161 1751.1547951417447
592.2573189522342 1725.1577942499255
593.2285135526189 1674.5475211049052
594.2316053915648 1634.7848819817743
595.2092910718607 1548.2460604193088